\\psf\Home\Programming\Dioptas\Dioptas_main\ExampleData\LaB6_p49_001.tif: 2-thet
2-Theta Angle (Degrees)

       1455
 1.0486433E-02  2.7862846E+01
 3.1459302E-02  2.8738375E+01
 5.2432168E-02  3.0297205E+01
 7.3405035E-02  2.9536245E+01
 9.4377905E-02  2.9158455E+01
 1.1535077E-01  2.8699938E+01
 1.3632363E-01  2.8365864E+01
 1.5729651E-01  2.9087566E+01
 1.7826937E-01  2.9324030E+01
 1.9924223E-01  2.8614765E+01
 2.2021511E-01  2.8913534E+01
 2.4118797E-01  2.9162361E+01
 2.6216084E-01  2.9036751E+01
 2.8313372E-01  2.9275772E+01
 3.0410656E-01  2.9863350E+01
 3.2507944E-01  2.9304146E+01
 3.4605232E-01  2.9222193E+01
 3.6702517E-01  2.9886265E+01
 3.8799804E-01  2.9445562E+01
 4.0897092E-01  2.9778255E+01
 4.2994377E-01  3.0439596E+01
 4.5091665E-01  3.0456558E+01
 4.7188953E-01  3.0712378E+01
 4.9286237E-01  3.0567917E+01
 5.1383525E-01  3.0198334E+01
 5.3480810E-01  3.0616047E+01
 5.5578101E-01  3.0875038E+01
 5.7675385E-01  3.0999170E+01
 5.9772670E-01  3.1005329E+01
 6.1869961E-01  3.0687658E+01
 6.3967246E-01  3.0503157E+01
 6.6064531E-01  3.0757345E+01
 6.8161821E-01  3.0717888E+01
 7.0259106E-01  3.0953011E+01
 7.2356391E-01  3.1334824E+01
 7.4453682E-01  3.1933100E+01
 7.6550967E-01  3.2117329E+01
 7.8648251E-01  3.1903618E+01
 8.0745536E-01  3.1945784E+01
 8.2842827E-01  3.2325546E+01
 8.4940112E-01  3.2496758E+01
 8.7037396E-01  3.2745865E+01
 8.9134687E-01  3.3207748E+01
 9.1231972E-01  3.3457092E+01
 9.3329257E-01  3.3480583E+01
 9.5426548E-01  3.3714104E+01
 9.7523832E-01  3.4065884E+01
 9.9621117E-01  3.4474686E+01
 1.0171840E+00  3.4755894E+01
 1.0381570E+00  3.4990898E+01
 1.0591298E+00  3.5624100E+01
 1.0801027E+00  3.6492702E+01
 1.1010755E+00  3.7056648E+01
 1.1220484E+00  3.7292969E+01
 1.1430212E+00  3.7766727E+01
 1.1639941E+00  3.8293427E+01
 1.1849670E+00  3.8429596E+01
 1.2059399E+00  3.8742973E+01
 1.2269127E+00  3.9695694E+01
 1.2478856E+00  4.0765450E+01
 1.2688584E+00  4.1757084E+01
 1.2898313E+00  4.4105392E+01
 1.3108042E+00  4.7975849E+01
 1.3317771E+00  5.3462334E+01
 1.3527499E+00  6.0796329E+01
 1.3737228E+00  6.9392822E+01
 1.3946956E+00  7.9393387E+01
 1.4156685E+00  9.0258911E+01
 1.4366415E+00  1.0357722E+02
 1.4576143E+00  1.1976517E+02
 1.4785872E+00  1.3782805E+02
 1.4995600E+00  1.5808647E+02
 1.5205328E+00  1.8003250E+02
 1.5415057E+00  2.0172516E+02
 1.5624787E+00  2.2491249E+02
 1.5834515E+00  2.5008443E+02
 1.6044244E+00  2.7415082E+02
 1.6253972E+00  2.9729715E+02
 1.6463701E+00  3.2244159E+02
 1.6673429E+00  3.4471228E+02
 1.6883159E+00  3.6584015E+02
 1.7092887E+00  3.8791125E+02
 1.7302616E+00  4.0606219E+02
 1.7512344E+00  4.2282001E+02
 1.7722073E+00  4.4208032E+02
 1.7931801E+00  4.5992212E+02
 1.8141531E+00  4.7646759E+02
 1.8351259E+00  4.9342572E+02
 1.8560988E+00  5.0897720E+02
 1.8770716E+00  5.2246802E+02
 1.8980445E+00  5.3522235E+02
 1.9190173E+00  5.4911035E+02
 1.9399902E+00  5.6047064E+02
 1.9609631E+00  5.6961243E+02
 1.9819360E+00  5.7740118E+02
 2.0029087E+00  5.8568793E+02
 2.0238817E+00  5.9334558E+02
 2.0448546E+00  6.0032654E+02
 2.0658274E+00  6.0630627E+02
 2.0868003E+00  6.1354639E+02
 2.1077731E+00  6.1945081E+02
 2.1287460E+00  6.2530658E+02
 2.1497190E+00  6.2764166E+02
 2.1706917E+00  6.2994696E+02
 2.1916647E+00  6.3375543E+02
 2.2126374E+00  6.3675421E+02
 2.2336104E+00  6.3723816E+02
 2.2545831E+00  6.3703540E+02
 2.2755561E+00  6.3702881E+02
 2.2965291E+00  6.3745441E+02
 2.3175018E+00  6.3747534E+02
 2.3384748E+00  6.3563342E+02
 2.3594475E+00  6.3599054E+02
 2.3804204E+00  6.3483301E+02
 2.4013934E+00  6.3238898E+02
 2.4223661E+00  6.3066949E+02
 2.4433391E+00  6.3049469E+02
 2.4643118E+00  6.2989087E+02
 2.4852848E+00  6.2756720E+02
 2.5062575E+00  6.2464703E+02
 2.5272305E+00  6.2300696E+02
 2.5482035E+00  6.2048267E+02
 2.5691762E+00  6.1886407E+02
 2.5901492E+00  6.1627570E+02
 2.6111219E+00  6.1166400E+02
 2.6320949E+00  6.0925952E+02
 2.6530676E+00  6.0766589E+02
 2.6740406E+00  6.0497461E+02
 2.6950135E+00  6.0187964E+02
 2.7159863E+00  5.9886639E+02
 2.7369592E+00  5.9555811E+02
 2.7579319E+00  5.9293518E+02
 2.7789049E+00  5.8974860E+02
 2.7998779E+00  5.8685870E+02
 2.8208506E+00  5.8359009E+02
 2.8418236E+00  5.8061725E+02
 2.8627963E+00  5.7852405E+02
 2.8837693E+00  5.7490002E+02
 2.9047420E+00  5.7112805E+02
 2.9257150E+00  5.6770697E+02
 2.9466879E+00  5.6508075E+02
 2.9676607E+00  5.6281036E+02
 2.9886336E+00  5.6022540E+02
 3.0096064E+00  5.5540674E+02
 3.0305793E+00  5.5091968E+02
 3.0515523E+00  5.4917993E+02
 3.0725250E+00  5.4600922E+02
 3.0934980E+00  5.4292859E+02
 3.1144707E+00  5.4093427E+02
 3.1354437E+00  5.3806421E+02
 3.1564164E+00  5.3439825E+02
 3.1773894E+00  5.2988464E+02
 3.1983624E+00  5.2657758E+02
 3.2193351E+00  5.2417712E+02
 3.2403080E+00  5.2121716E+02
 3.2612808E+00  5.1883746E+02
 3.2822537E+00  5.1579443E+02
 3.3032267E+00  5.1275488E+02
 3.3241994E+00  5.1118985E+02
 3.3451724E+00  5.0818393E+02
 3.3661451E+00  5.0520227E+02
 3.3871181E+00  5.0279996E+02
 3.4080908E+00  5.0032324E+02
 3.4290638E+00  4.9705771E+02
 3.4500368E+00  4.9400201E+02
 3.4710095E+00  4.9067032E+02
 3.4919825E+00  4.8869730E+02
 3.5129552E+00  4.8611844E+02
 3.5339282E+00  4.8342081E+02
 3.5549009E+00  4.7984772E+02
 3.5758739E+00  4.7799005E+02
 3.5968468E+00  4.7687683E+02
 3.6178195E+00  4.7416293E+02
 3.6387925E+00  4.7239124E+02
 3.6597652E+00  4.7124609E+02
 3.6807382E+00  4.6947717E+02
 3.7017112E+00  4.6737045E+02
 3.7226839E+00  4.6377631E+02
 3.7436569E+00  4.6097351E+02
 3.7646296E+00  4.5944846E+02
 3.7856026E+00  4.5752151E+02
 3.8065753E+00  4.5559415E+02
 3.8275483E+00  4.5381653E+02
 3.8485212E+00  4.5185474E+02
 3.8694940E+00  4.4925360E+02
 3.8904669E+00  4.4589267E+02
 3.9114397E+00  4.4353775E+02
 3.9324126E+00  4.4199695E+02
 3.9533856E+00  4.4047601E+02
 3.9743583E+00  4.3897894E+02
 3.9953313E+00  4.3624173E+02
 4.0163040E+00  4.3427213E+02
 4.0372767E+00  4.3286063E+02
 4.0582500E+00  4.3098627E+02
 4.0792227E+00  4.2960425E+02
 4.1001954E+00  4.2790656E+02
 4.1211686E+00  4.2565097E+02
 4.1421413E+00  4.2317267E+02
 4.1631141E+00  4.2147699E+02
 4.1840868E+00  4.2094919E+02
 4.2050600E+00  4.2050705E+02
 4.2260327E+00  4.2029614E+02
 4.2470055E+00  4.1877457E+02
 4.2679787E+00  4.1621454E+02
 4.2889514E+00  4.1515811E+02
 4.3099241E+00  4.1451407E+02
 4.3308969E+00  4.1374756E+02
 4.3518701E+00  4.1151294E+02
 4.3728428E+00  4.1059290E+02
 4.3938155E+00  4.1132855E+02
 4.4147887E+00  4.1185556E+02
 4.4357615E+00  4.1377539E+02
 4.4567342E+00  4.1674994E+02
 4.4777074E+00  4.2109082E+02
 4.4986801E+00  4.2883633E+02
 4.5196528E+00  4.4481833E+02
 4.5406256E+00  4.8213309E+02
 4.5615988E+00  6.8944592E+02
 4.5825715E+00  1.2193088E+03
 4.6035442E+00  1.8056887E+03
 4.6245174E+00  1.7494933E+03
 4.6454902E+00  1.0417727E+03
 4.6664629E+00  5.5841144E+02
 4.6874356E+00  4.6057346E+02
 4.7084088E+00  4.2596237E+02
 4.7293816E+00  4.0750821E+02
 4.7503543E+00  3.9641644E+02
 4.7713275E+00  3.8981989E+02
 4.7923002E+00  3.8451376E+02
 4.8132730E+00  3.7972137E+02
 4.8342457E+00  3.7616568E+02
 4.8552189E+00  3.7414090E+02
 4.8761916E+00  3.7181970E+02
 4.8971643E+00  3.6904489E+02
 4.9181376E+00  3.6667911E+02
 4.9391103E+00  3.6491891E+02
 4.9600830E+00  3.6302682E+02
 4.9810557E+00  3.6158066E+02
 5.0020289E+00  3.6032220E+02
 5.0230017E+00  3.5877728E+02
 5.0439744E+00  3.5706674E+02
 5.0649476E+00  3.5525385E+02
 5.0859203E+00  3.5396307E+02
 5.1068931E+00  3.5282199E+02
 5.1278663E+00  3.5058090E+02
 5.1488390E+00  3.4909805E+02
 5.1698117E+00  3.4839426E+02
 5.1907845E+00  3.4738235E+02
 5.2117577E+00  3.4604742E+02
 5.2327304E+00  3.4450534E+02
 5.2537031E+00  3.4369614E+02
 5.2746763E+00  3.4299304E+02
 5.2956491E+00  3.4143567E+02
 5.3166218E+00  3.3973019E+02
 5.3375945E+00  3.3832224E+02
 5.3585677E+00  3.3796326E+02
 5.3795404E+00  3.3810068E+02
 5.4005132E+00  3.3711316E+02
 5.4214864E+00  3.3484283E+02
 5.4424591E+00  3.3299536E+02
 5.4634318E+00  3.3218484E+02
 5.4844046E+00  3.3178870E+02
 5.5053778E+00  3.3131516E+02
 5.5263505E+00  3.3085318E+02
 5.5473232E+00  3.3021686E+02
 5.5682964E+00  3.2999667E+02
 5.5892692E+00  3.2865356E+02
 5.6102419E+00  3.2704095E+02
 5.6312151E+00  3.2607593E+02
 5.6521878E+00  3.2624036E+02
 5.6731606E+00  3.2643289E+02
 5.6941333E+00  3.2673529E+02
 5.7151065E+00  3.2716809E+02
 5.7360792E+00  3.2706589E+02
 5.7570519E+00  3.2576572E+02
 5.7780252E+00  3.2388477E+02
 5.7989979E+00  3.2224228E+02
 5.8199706E+00  3.2065701E+02
 5.8409433E+00  3.1980771E+02
 5.8619165E+00  3.1896539E+02
 5.8828893E+00  3.1802426E+02
 5.9038620E+00  3.1764911E+02
 5.9248352E+00  3.1699011E+02
 5.9458079E+00  3.1555615E+02
 5.9667807E+00  3.1486465E+02
 5.9877534E+00  3.1450281E+02
 6.0087266E+00  3.1416614E+02
 6.0296993E+00  3.1379395E+02
 6.0506721E+00  3.1396738E+02
 6.0716453E+00  3.1434790E+02
 6.0926180E+00  3.1453558E+02
 6.1135907E+00  3.1517447E+02
 6.1345634E+00  3.1498621E+02
 6.1555367E+00  3.1468588E+02
 6.1765094E+00  3.1460599E+02
 6.1974821E+00  3.1371231E+02
 6.2184553E+00  3.1347256E+02
 6.2394280E+00  3.1397867E+02
 6.2604008E+00  3.1508920E+02
 6.2813740E+00  3.1652255E+02
 6.3023467E+00  3.1800021E+02
 6.3233194E+00  3.2154053E+02
 6.3442922E+00  3.2714963E+02
 6.3652654E+00  3.3495657E+02
 6.3862381E+00  3.4753339E+02
 6.4072108E+00  3.6814560E+02
 6.4281840E+00  4.0291333E+02
 6.4491568E+00  4.7632184E+02
 6.4701295E+00  6.8508032E+02
 6.4911022E+00  1.1132076E+03
 6.5120754E+00  1.5911815E+03
 6.5330482E+00  1.5796539E+03
 6.5540209E+00  1.0258346E+03
 6.5749941E+00  6.1246490E+02
 6.5959668E+00  4.6224408E+02
 6.6169395E+00  3.9478323E+02
 6.6379123E+00  3.5797687E+02
 6.6588855E+00  3.3572006E+02
 6.6798582E+00  3.2164331E+02
 6.7008309E+00  3.1180838E+02
 6.7218041E+00  3.0502264E+02
 6.7427769E+00  2.9941144E+02
 6.7637496E+00  2.9493625E+02
 6.7847223E+00  2.9108493E+02
 6.8056955E+00  2.8812894E+02
 6.8266683E+00  2.8554102E+02
 6.8476410E+00  2.8266632E+02
 6.8686142E+00  2.8158807E+02
 6.8895869E+00  2.8056052E+02
 6.9105597E+00  2.7919852E+02
 6.9315329E+00  2.7842737E+02
 6.9525056E+00  2.7738306E+02
 6.9734783E+00  2.7541031E+02
 6.9944510E+00  2.7351660E+02
 7.0154243E+00  2.7234808E+02
 7.0363970E+00  2.7151492E+02
 7.0573697E+00  2.7053137E+02
 7.0783429E+00  2.6959485E+02
 7.0993156E+00  2.6852948E+02
 7.1202884E+00  2.6709570E+02
 7.1412611E+00  2.6553909E+02
 7.1622343E+00  2.6456210E+02
 7.1832070E+00  2.6423120E+02
 7.2041798E+00  2.6312427E+02
 7.2251530E+00  2.6194357E+02
 7.2461257E+00  2.6147168E+02
 7.2670984E+00  2.6067825E+02
 7.2880712E+00  2.5972189E+02
 7.3090444E+00  2.5894272E+02
 7.3300171E+00  2.5833853E+02
 7.3509898E+00  2.5728958E+02
 7.3719630E+00  2.5694370E+02
 7.3929358E+00  2.5583728E+02
 7.4139085E+00  2.5527365E+02
 7.4348812E+00  2.5461607E+02
 7.4558544E+00  2.5413567E+02
 7.4768271E+00  2.5358379E+02
 7.4977999E+00  2.5285249E+02
 7.5187731E+00  2.5267451E+02
 7.5397458E+00  2.5266356E+02
 7.5607185E+00  2.5250412E+02
 7.5816917E+00  2.5164656E+02
 7.6026645E+00  2.5124126E+02
 7.6236372E+00  2.5199355E+02
 7.6446099E+00  2.5178210E+02
 7.6655831E+00  2.5187117E+02
 7.6865559E+00  2.5261087E+02
 7.7075286E+00  2.5282845E+02
 7.7285018E+00  2.5239624E+02
 7.7494745E+00  2.5310455E+02
 7.7704473E+00  2.5503543E+02
 7.7914200E+00  2.5735150E+02
 7.8123932E+00  2.6054941E+02
 7.8333659E+00  2.6552368E+02
 7.8543386E+00  2.7330276E+02
 7.8753119E+00  2.8483017E+02
 7.8962846E+00  3.0425436E+02
 7.9172573E+00  3.5243320E+02
 7.9382300E+00  5.1012845E+02
 7.9592032E+00  7.6649109E+02
 7.9801760E+00  1.0457036E+03
 8.0011492E+00  1.0303035E+03
 8.0221214E+00  7.8961743E+02
 8.0430946E+00  4.9880820E+02
 8.0640678E+00  3.4359756E+02
 8.0850401E+00  3.0032797E+02
 8.1060133E+00  2.8128009E+02
 8.1269865E+00  2.6906729E+02
 8.1479588E+00  2.6108224E+02
 8.1689320E+00  2.5488330E+02
 8.1899042E+00  2.5044710E+02
 8.2108774E+00  2.4763089E+02
 8.2318506E+00  2.4555075E+02
 8.2528229E+00  2.4339944E+02
 8.2737961E+00  2.4184251E+02
 8.2947693E+00  2.4025777E+02
 8.3157415E+00  2.4001732E+02
 8.3367147E+00  2.3985362E+02
 8.3576880E+00  2.3911183E+02
 8.3786602E+00  2.3841985E+02
 8.3996334E+00  2.3781406E+02
 8.4206066E+00  2.3762163E+02
 8.4415789E+00  2.3737204E+02
 8.4625521E+00  2.3745166E+02
 8.4835253E+00  2.3639278E+02
 8.5044975E+00  2.3593520E+02
 8.5254707E+00  2.3634499E+02
 8.5464430E+00  2.3646693E+02
 8.5674162E+00  2.3626921E+02
 8.5883894E+00  2.3606854E+02
 8.6093616E+00  2.3646950E+02
 8.6303349E+00  2.3646600E+02
 8.6513081E+00  2.3635992E+02
 8.6722803E+00  2.3662332E+02
 8.6932535E+00  2.3660931E+02
 8.7142267E+00  2.3635817E+02
 8.7351990E+00  2.3683879E+02
 8.7561722E+00  2.3731125E+02
 8.7771454E+00  2.3726715E+02
 8.7981176E+00  2.3747279E+02
 8.8190908E+00  2.3751448E+02
 8.8400631E+00  2.3823271E+02
 8.8610363E+00  2.3912486E+02
 8.8820095E+00  2.3951973E+02
 8.9029818E+00  2.3949802E+02
 8.9239550E+00  2.3972005E+02
 8.9449282E+00  2.4027008E+02
 8.9659004E+00  2.4141418E+02
 8.9868736E+00  2.4221173E+02
 9.0078468E+00  2.4316048E+02
 9.0288191E+00  2.4410301E+02
 9.0497923E+00  2.4557312E+02
 9.0707655E+00  2.4782365E+02
 9.0917377E+00  2.5150912E+02
 9.1127110E+00  2.5733578E+02
 9.1336842E+00  2.6688004E+02
 9.1546564E+00  2.8609363E+02
 9.1756296E+00  3.4968369E+02
 9.1966019E+00  5.3088257E+02
 9.2175751E+00  7.6209174E+02
 9.2385483E+00  7.6593365E+02
 9.2595205E+00  5.1886871E+02
 9.2804937E+00  3.4550165E+02
 9.3014669E+00  2.8889392E+02
 9.3224392E+00  2.7018146E+02
 9.3434124E+00  2.6052240E+02
 9.3643856E+00  2.5445659E+02
 9.3853579E+00  2.5076117E+02
 9.4063311E+00  2.4903246E+02
 9.4273043E+00  2.4810725E+02
 9.4482765E+00  2.4703635E+02
 9.4692497E+00  2.4518982E+02
 9.4902220E+00  2.4298058E+02
 9.5111952E+00  2.4077748E+02
 9.5321684E+00  2.3854070E+02
 9.5531406E+00  2.3680807E+02
 9.5741138E+00  2.3534805E+02
 9.5950871E+00  2.3477835E+02
 9.6160593E+00  2.3422124E+02
 9.6370325E+00  2.3307770E+02
 9.6580057E+00  2.3213351E+02
 9.6789780E+00  2.3116164E+02
 9.6999512E+00  2.3070572E+02
 9.7209244E+00  2.3048012E+02
 9.7418966E+00  2.3037132E+02
 9.7628698E+00  2.2938629E+02
 9.7838430E+00  2.2838367E+02
 9.8048153E+00  2.2817397E+02
 9.8257885E+00  2.2812117E+02
 9.8467607E+00  2.2762813E+02
 9.8677340E+00  2.2704608E+02
 9.8887072E+00  2.2649023E+02
 9.9096794E+00  2.2618469E+02
 9.9306526E+00  2.2625545E+02
 9.9516258E+00  2.2662999E+02
 9.9725981E+00  2.2693416E+02
 9.9935713E+00  2.2731364E+02
 1.0014544E+01  2.2799661E+02
 1.0035517E+01  2.2828870E+02
 1.0056490E+01  2.2940604E+02
 1.0077463E+01  2.3058531E+02
 1.0098435E+01  2.3256194E+02
 1.0119409E+01  2.3574747E+02
 1.0140381E+01  2.4027016E+02
 1.0161354E+01  2.4670035E+02
 1.0182327E+01  2.5695749E+02
 1.0203300E+01  2.7362524E+02
 1.0224273E+01  3.1585980E+02
 1.0245246E+01  4.6319165E+02
 1.0266218E+01  6.7018854E+02
 1.0287191E+01  9.5820050E+02
 1.0308165E+01  1.2851298E+03
 1.0329137E+01  1.2880946E+03
 1.0350110E+01  8.9385126E+02
 1.0371083E+01  6.0800098E+02
 1.0392056E+01  4.3501651E+02
 1.0413029E+01  3.5135989E+02
 1.0434002E+01  2.8190833E+02
 1.0454974E+01  2.5684219E+02
 1.0475947E+01  2.4401642E+02
 1.0496920E+01  2.3490009E+02
 1.0517893E+01  2.2783827E+02
 1.0538866E+01  2.2294203E+02
 1.0559838E+01  2.1915649E+02
 1.0580812E+01  2.1594478E+02
 1.0601785E+01  2.1318199E+02
 1.0622757E+01  2.1102444E+02
 1.0643730E+01  2.0932664E+02
 1.0664703E+01  2.0820854E+02
 1.0685676E+01  2.0748471E+02
 1.0706649E+01  2.0653082E+02
 1.0727622E+01  2.0566560E+02
 1.0748594E+01  2.0507420E+02
 1.0769567E+01  2.0413806E+02
 1.0790540E+01  2.0314201E+02
 1.0811513E+01  2.0231549E+02
 1.0832486E+01  2.0175752E+02
 1.0853458E+01  2.0133704E+02
 1.0874432E+01  2.0125279E+02
 1.0895405E+01  2.0119653E+02
 1.0916377E+01  2.0089345E+02
 1.0937350E+01  2.0061617E+02
 1.0958323E+01  2.0025140E+02
 1.0979296E+01  2.0017563E+02
 1.1000269E+01  2.0066217E+02
 1.1021242E+01  2.0075876E+02
 1.1042214E+01  2.0097562E+02
 1.1063188E+01  2.0148256E+02
 1.1084161E+01  2.0253004E+02
 1.1105133E+01  2.0391716E+02
 1.1126106E+01  2.0641960E+02
 1.1147079E+01  2.0931763E+02
 1.1168052E+01  2.1401486E+02
 1.1189025E+01  2.2167131E+02
 1.1209997E+01  2.3355052E+02
 1.1230970E+01  2.5513782E+02
 1.1251944E+01  3.1164911E+02
 1.1272916E+01  4.5857175E+02
 1.1293889E+01  6.5053680E+02
 1.1314862E+01  6.7573944E+02
 1.1335835E+01  4.8984305E+02
 1.1356808E+01  3.3114896E+02
 1.1377781E+01  2.6477377E+02
 1.1398753E+01  2.3878514E+02
 1.1419726E+01  2.2425249E+02
 1.1440699E+01  2.1475613E+02
 1.1461672E+01  2.0815997E+02
 1.1482645E+01  2.0408163E+02
 1.1503617E+01  2.0107895E+02
 1.1524590E+01  1.9805083E+02
 1.1545564E+01  1.9574330E+02
 1.1566536E+01  1.9385777E+02
 1.1587509E+01  1.9239900E+02
 1.1608482E+01  1.9124307E+02
 1.1629455E+01  1.9015398E+02
 1.1650428E+01  1.8941235E+02
 1.1671401E+01  1.8908716E+02
 1.1692373E+01  1.8904008E+02
 1.1713346E+01  1.8893858E+02
 1.1734320E+01  1.8870598E+02
 1.1755292E+01  1.8840532E+02
 1.1776265E+01  1.8766888E+02
 1.1797237E+01  1.8704869E+02
 1.1818211E+01  1.8616243E+02
 1.1839184E+01  1.8544672E+02
 1.1860156E+01  1.8516537E+02
 1.1881129E+01  1.8485556E+02
 1.1902102E+01  1.8449657E+02
 1.1923075E+01  1.8400934E+02
 1.1944048E+01  1.8364400E+02
 1.1965021E+01  1.8368730E+02
 1.1985993E+01  1.8338011E+02
 1.2006967E+01  1.8252109E+02
 1.2027940E+01  1.8216216E+02
 1.2048912E+01  1.8243675E+02
 1.2069885E+01  1.8207399E+02
 1.2090858E+01  1.8196806E+02
 1.2111831E+01  1.8222336E+02
 1.2132804E+01  1.8212854E+02
 1.2153776E+01  1.8201366E+02
 1.2174749E+01  1.8167830E+02
 1.2195723E+01  1.8134566E+02
 1.2216695E+01  1.8128828E+02
 1.2237668E+01  1.8094620E+02
 1.2258641E+01  1.8074117E+02
 1.2279613E+01  1.8063828E+02
 1.2300587E+01  1.8057916E+02
 1.2321560E+01  1.8041672E+02
 1.2342532E+01  1.8031982E+02
 1.2363505E+01  1.8046446E+02
 1.2384479E+01  1.8037488E+02
 1.2405451E+01  1.7984967E+02
 1.2426424E+01  1.7983426E+02
 1.2447396E+01  1.7988066E+02
 1.2468369E+01  1.8002925E+02
 1.2489343E+01  1.7940128E+02
 1.2510315E+01  1.7857176E+02
 1.2531288E+01  1.7840144E+02
 1.2552261E+01  1.7857387E+02
 1.2573234E+01  1.7844333E+02
 1.2594207E+01  1.7789688E+02
 1.2615180E+01  1.7783759E+02
 1.2636152E+01  1.7804816E+02
 1.2657125E+01  1.7837689E+02
 1.2678099E+01  1.7864999E+02
 1.2699071E+01  1.7873827E+02
 1.2720044E+01  1.7860693E+02
 1.2741016E+01  1.7854721E+02
 1.2761990E+01  1.7841780E+02
 1.2782963E+01  1.7892798E+02
 1.2803935E+01  1.7926741E+02
 1.2824908E+01  1.7946428E+02
 1.2845881E+01  1.8004092E+02
 1.2866854E+01  1.8108540E+02
 1.2887827E+01  1.8241241E+02
 1.2908800E+01  1.8445898E+02
 1.2929772E+01  1.8712852E+02
 1.2950746E+01  1.9090378E+02
 1.2971719E+01  1.9678572E+02
 1.2992691E+01  2.0743288E+02
 1.3013664E+01  2.3487100E+02
 1.3034637E+01  3.0450156E+02
 1.3055610E+01  3.8757321E+02
 1.3076583E+01  3.7903888E+02
 1.3097555E+01  2.9040045E+02
 1.3118528E+01  2.2769362E+02
 1.3139502E+01  2.0513470E+02
 1.3160474E+01  1.9532991E+02
 1.3181447E+01  1.8952733E+02
 1.3202420E+01  1.8561742E+02
 1.3223392E+01  1.8336127E+02
 1.3244366E+01  1.8189067E+02
 1.3265339E+01  1.8025174E+02
 1.3286311E+01  1.7940250E+02
 1.3307284E+01  1.7893810E+02
 1.3328258E+01  1.7846461E+02
 1.3349230E+01  1.7812682E+02
 1.3370203E+01  1.7796107E+02
 1.3391175E+01  1.7736342E+02
 1.3412148E+01  1.7697314E+02
 1.3433122E+01  1.7684167E+02
 1.3454094E+01  1.7681802E+02
 1.3475067E+01  1.7711090E+02
 1.3496040E+01  1.7752756E+02
 1.3517013E+01  1.7764850E+02
 1.3537986E+01  1.7825844E+02
 1.3558959E+01  1.7906032E+02
 1.3579931E+01  1.8003217E+02
 1.3600904E+01  1.8073218E+02
 1.3621878E+01  1.8249768E+02
 1.3642850E+01  1.8480484E+02
 1.3663823E+01  1.8774513E+02
 1.3684796E+01  1.9211932E+02
 1.3705769E+01  1.9806804E+02
 1.3726742E+01  2.0584987E+02
 1.3747714E+01  2.1728818E+02
 1.3768687E+01  2.3511356E+02
 1.3789660E+01  2.6700308E+02
 1.3810633E+01  3.3522723E+02
 1.3831606E+01  5.0890454E+02
 1.3852579E+01  7.4218427E+02
 1.3873551E+01  7.5010229E+02
 1.3894525E+01  5.1505078E+02
 1.3915498E+01  3.3439615E+02
 1.3936470E+01  2.6198038E+02
 1.3957443E+01  2.3452107E+02
 1.3978416E+01  2.1754958E+02
 1.3999389E+01  2.0582634E+02
 1.4020362E+01  1.9753038E+02
 1.4041334E+01  1.9185431E+02
 1.4062307E+01  1.8794530E+02
 1.4083281E+01  1.8445328E+02
 1.4104253E+01  1.8200026E+02
 1.4125226E+01  1.8013806E+02
 1.4146199E+01  1.7846967E+02
 1.4167171E+01  1.7767067E+02
 1.4188145E+01  1.7680040E+02
 1.4209118E+01  1.7584770E+02
 1.4230090E+01  1.7511725E+02
 1.4251063E+01  1.7454935E+02
 1.4272037E+01  1.7444197E+02
 1.4293009E+01  1.7453409E+02
 1.4313982E+01  1.7470105E+02
 1.4334955E+01  1.7527313E+02
 1.4355927E+01  1.7605089E+02
 1.4376901E+01  1.7723761E+02
 1.4397873E+01  1.7850154E+02
 1.4418846E+01  1.8055846E+02
 1.4439819E+01  1.8343279E+02
 1.4460792E+01  1.8787621E+02
 1.4481765E+01  1.9408514E+02
 1.4502738E+01  2.2191974E+02
 1.4523710E+01  2.6263339E+02
 1.4544683E+01  3.0593155E+02
 1.4565657E+01  3.8048901E+02
 1.4586629E+01  4.8150116E+02
 1.4607602E+01  6.2800488E+02
 1.4628575E+01  6.5516528E+02
 1.4649548E+01  4.9526462E+02
 1.4670521E+01  3.4187665E+02
 1.4691493E+01  2.5876691E+02
 1.4712466E+01  2.1805658E+02
 1.4733439E+01  2.0299892E+02
 1.4754412E+01  1.9392917E+02
 1.4775385E+01  1.8730829E+02
 1.4796358E+01  1.8240860E+02
 1.4817330E+01  1.7915210E+02
 1.4838304E+01  1.7644148E+02
 1.4859277E+01  1.7466823E+02
 1.4880249E+01  1.7335364E+02
 1.4901222E+01  1.7177263E+02
 1.4922195E+01  1.7108162E+02
 1.4943168E+01  1.7069240E+02
 1.4964141E+01  1.7033195E+02
 1.4985114E+01  1.7016327E+02
 1.5006086E+01  1.7020616E+02
 1.5027060E+01  1.7027296E+02
 1.5048032E+01  1.7031480E+02
 1.5069005E+01  1.7048720E+02
 1.5089978E+01  1.7056598E+02
 1.5110950E+01  1.7111519E+02
 1.5131924E+01  1.7234006E+02
 1.5152897E+01  1.7356230E+02
 1.5173869E+01  1.7556889E+02
 1.5194842E+01  1.7881813E+02
 1.5215816E+01  1.8346339E+02
 1.5236788E+01  1.9064992E+02
 1.5257761E+01  2.0296471E+02
 1.5278734E+01  2.2760918E+02
 1.5299706E+01  2.8269266E+02
 1.5320680E+01  3.5793222E+02
 1.5341653E+01  3.7077982E+02
 1.5362625E+01  2.9456177E+02
 1.5383598E+01  2.3026230E+02
 1.5404571E+01  2.0416406E+02
 1.5425544E+01  1.9169431E+02
 1.5446517E+01  1.8368388E+02
 1.5467489E+01  1.7896625E+02
 1.5488462E+01  1.7544221E+02
 1.5509436E+01  1.7232127E+02
 1.5530408E+01  1.7002992E+02
 1.5551381E+01  1.6856451E+02
 1.5572354E+01  1.6729082E+02
 1.5593327E+01  1.6616411E+02
 1.5614300E+01  1.6530193E+02
 1.5635273E+01  1.6475107E+02
 1.5656245E+01  1.6431862E+02
 1.5677218E+01  1.6383043E+02
 1.5698191E+01  1.6348364E+02
 1.5719164E+01  1.6327170E+02
 1.5740137E+01  1.6336533E+02
 1.5761109E+01  1.6333481E+02
 1.5782083E+01  1.6295714E+02
 1.5803056E+01  1.6324339E+02
 1.5824028E+01  1.6339499E+02
 1.5845001E+01  1.6362271E+02
 1.5865974E+01  1.6360664E+02
 1.5886947E+01  1.6395728E+02
 1.5907920E+01  1.6476706E+02
 1.5928893E+01  1.6589104E+02
 1.5949865E+01  1.6759065E+02
 1.5970839E+01  1.7200073E+02
 1.5991812E+01  1.8232083E+02
 1.6012785E+01  1.9868633E+02
 1.6033756E+01  1.9726500E+02
 1.6054729E+01  1.7825586E+02
 1.6075703E+01  1.6865115E+02
 1.6096676E+01  1.6530617E+02
 1.6117649E+01  1.6332617E+02
 1.6138622E+01  1.6186226E+02
 1.6159594E+01  1.6100679E+02
 1.6180567E+01  1.6063130E+02
 1.6201540E+01  1.6084634E+02
 1.6222513E+01  1.6075592E+02
 1.6243486E+01  1.6020630E+02
 1.6264458E+01  1.5998392E+02
 1.6285431E+01  1.5983931E+02
 1.6306404E+01  1.5962128E+02
 1.6327377E+01  1.5977716E+02
 1.6348351E+01  1.6007751E+02
 1.6369324E+01  1.6029097E+02
 1.6390295E+01  1.6034560E+02
 1.6411268E+01  1.6016299E+02
 1.6432241E+01  1.6051103E+02
 1.6453215E+01  1.6110287E+02
 1.6474188E+01  1.6151283E+02
 1.6495159E+01  1.6259125E+02
 1.6516132E+01  1.6363745E+02
 1.6537106E+01  1.6548450E+02
 1.6558079E+01  1.6860179E+02
 1.6579052E+01  1.7334145E+02
 1.6600025E+01  1.8078354E+02
 1.6620996E+01  1.9449545E+02
 1.6641970E+01  2.2365704E+02
 1.6662943E+01  2.6697281E+02
 1.6683916E+01  2.8930734E+02
 1.6704889E+01  2.5906674E+02
 1.6725863E+01  2.0654935E+02
 1.6746834E+01  1.8291216E+02
 1.6767807E+01  1.7365425E+02
 1.6788780E+01  1.6845448E+02
 1.6809753E+01  1.6500690E+02
 1.6830727E+01  1.6235835E+02
 1.6851698E+01  1.6054041E+02
 1.6872671E+01  1.5943274E+02
 1.6893644E+01  1.5860098E+02
 1.6914618E+01  1.5805060E+02
 1.6935591E+01  1.5780809E+02
 1.6956564E+01  1.5739798E+02
 1.6977535E+01  1.5712254E+02
 1.6998508E+01  1.5726866E+02
 1.7019482E+01  1.5750970E+02
 1.7040455E+01  1.5770500E+02
 1.7061428E+01  1.5856050E+02
 1.7082401E+01  1.5997528E+02
 1.7103373E+01  1.6145726E+02
 1.7124346E+01  1.6332983E+02
 1.7145319E+01  1.6603786E+02
 1.7166292E+01  1.6974028E+02
 1.7187265E+01  1.7501866E+02
 1.7208237E+01  1.8267097E+02
 1.7229210E+01  1.9460146E+02
 1.7250183E+01  2.1470430E+02
 1.7271156E+01  2.5243501E+02
 1.7292130E+01  3.1876974E+02
 1.7313103E+01  3.6291461E+02
 1.7334074E+01  3.1942569E+02
 1.7355047E+01  2.4934674E+02
 1.7376020E+01  2.0986096E+02
 1.7396994E+01  1.9167329E+02
 1.7417967E+01  1.8082684E+02
 1.7438940E+01  1.7349153E+02
 1.7459911E+01  1.6830489E+02
 1.7480885E+01  1.6431761E+02
 1.7501858E+01  1.6118962E+02
 1.7522831E+01  1.5904524E+02
 1.7543804E+01  1.5691406E+02
 1.7564775E+01  1.5517227E+02
 1.7585749E+01  1.5371017E+02
 1.7606722E+01  1.5276448E+02
 1.7627695E+01  1.5212440E+02
 1.7648668E+01  1.5168338E+02
 1.7669641E+01  1.5132414E+02
 1.7690613E+01  1.5055989E+02
 1.7711586E+01  1.5003777E+02
 1.7732559E+01  1.4992966E+02
 1.7753532E+01  1.5004619E+02
 1.7774506E+01  1.4970329E+02
 1.7795477E+01  1.4922931E+02
 1.7816450E+01  1.4903502E+02
 1.7837423E+01  1.4887384E+02
 1.7858397E+01  1.4864935E+02
 1.7879370E+01  1.4819701E+02
 1.7900343E+01  1.4775961E+02
 1.7921314E+01  1.4770300E+02
 1.7942287E+01  1.4765227E+02
 1.7963261E+01  1.4749925E+02
 1.7984234E+01  1.4705693E+02
 1.8005207E+01  1.4691295E+02
 1.8026180E+01  1.4689136E+02
 1.8047152E+01  1.4653871E+02
 1.8068125E+01  1.4640735E+02
 1.8089098E+01  1.4640123E+02
 1.8110071E+01  1.4654680E+02
 1.8131044E+01  1.4651379E+02
 1.8152016E+01  1.4660582E+02
 1.8172989E+01  1.4674763E+02
 1.8193962E+01  1.4660295E+02
 1.8214935E+01  1.4661137E+02
 1.8235909E+01  1.4643628E+02
 1.8256882E+01  1.4653812E+02
 1.8277853E+01  1.4666690E+02
 1.8298826E+01  1.4704765E+02
 1.8319799E+01  1.4752051E+02
 1.8340773E+01  1.4790297E+02
 1.8361746E+01  1.4814059E+02
 1.8382719E+01  1.4882762E+02
 1.8403690E+01  1.5005626E+02
 1.8424664E+01  1.5161391E+02
 1.8445637E+01  1.5431212E+02
 1.8466610E+01  1.5992195E+02
 1.8487583E+01  1.7744315E+02
 1.8508554E+01  1.9564255E+02
 1.8529528E+01  1.8537268E+02
 1.8550501E+01  1.6706111E+02
 1.8571474E+01  1.5744679E+02
 1.8592447E+01  1.5320071E+02
 1.8613420E+01  1.5105534E+02
 1.8634392E+01  1.4958716E+02
 1.8655365E+01  1.4897557E+02
 1.8676338E+01  1.4849478E+02
 1.8697311E+01  1.4811555E+02
 1.8718285E+01  1.4791518E+02
 1.8739258E+01  1.4763136E+02
 1.8760229E+01  1.4762088E+02
 1.8781202E+01  1.4776208E+02
 1.8802176E+01  1.4821684E+02
 1.8823149E+01  1.4926909E+02
 1.8844122E+01  1.5023360E+02
 1.8865093E+01  1.5146136E+02
 1.8886066E+01  1.5282184E+02
 1.8907040E+01  1.5453838E+02
 1.8928013E+01  1.5690024E+02
 1.8948986E+01  1.6016570E+02
 1.8969959E+01  1.6482999E+02
 1.8990931E+01  1.7147119E+02
 1.9011904E+01  1.8209727E+02
 1.9032877E+01  2.0186249E+02
 1.9053850E+01  2.4820093E+02
 1.9074823E+01  3.3920868E+02
 1.9095797E+01  3.9640204E+02
 1.9116768E+01  3.3559955E+02
 1.9137741E+01  2.3882057E+02
 1.9158714E+01  1.8965805E+02
 1.9179688E+01  1.7575114E+02
 1.9200661E+01  1.6768631E+02
 1.9221632E+01  1.6252946E+02
 1.9242605E+01  1.5861049E+02
 1.9263578E+01  1.5565144E+02
 1.9284552E+01  1.5348082E+02
 1.9305525E+01  1.5200546E+02
 1.9326498E+01  1.5071599E+02
 1.9347469E+01  1.4983572E+02
 1.9368443E+01  1.4925722E+02
 1.9389416E+01  1.4903426E+02
 1.9410389E+01  1.4945267E+02
 1.9431362E+01  1.4981371E+02
 1.9452333E+01  1.5040169E+02
 1.9473307E+01  1.5174727E+02
 1.9494280E+01  1.5341281E+02
 1.9515253E+01  1.5581958E+02
 1.9536226E+01  1.5931349E+02
 1.9557199E+01  1.6475905E+02
 1.9578171E+01  1.7329710E+02
 1.9599144E+01  1.8918466E+02
 1.9620117E+01  2.1803951E+02
 1.9641090E+01  2.5396657E+02
 1.9662064E+01  2.5272267E+02
 1.9683037E+01  2.1236311E+02
 1.9704008E+01  1.8215182E+02
 1.9724981E+01  1.6792603E+02
 1.9745955E+01  1.6082672E+02
 1.9766928E+01  1.5643925E+02
 1.9787901E+01  1.5312601E+02
 1.9808872E+01  1.5039284E+02
 1.9829845E+01  1.4847823E+02
 1.9850819E+01  1.4737172E+02
 1.9871792E+01  1.4658441E+02
 1.9892765E+01  1.4544629E+02
 1.9913738E+01  1.4451369E+02
 1.9934710E+01  1.4380878E+02
 1.9955683E+01  1.4345782E+02
 1.9976656E+01  1.4353978E+02
 1.9997629E+01  1.4371393E+02
 2.0018602E+01  1.4392264E+02
 2.0039576E+01  1.4427972E+02
 2.0060547E+01  1.4552011E+02
 2.0081520E+01  1.4713646E+02
 2.0102493E+01  1.4923488E+02
 2.0123466E+01  1.5279012E+02
 2.0144440E+01  1.5932484E+02
 2.0165411E+01  1.7002647E+02
 2.0186384E+01  1.8100447E+02
 2.0207357E+01  1.7940891E+02
 2.0228331E+01  1.6709538E+02
 2.0249304E+01  1.5621344E+02
 2.0270277E+01  1.5035310E+02
 2.0291248E+01  1.4723375E+02
 2.0312222E+01  1.4510924E+02
 2.0333195E+01  1.4387642E+02
 2.0354168E+01  1.4288777E+02
 2.0375141E+01  1.4210487E+02
 2.0396114E+01  1.4150752E+02
 2.0417086E+01  1.4124809E+02
 2.0438059E+01  1.4106058E+02
 2.0459032E+01  1.4122556E+02
 2.0480005E+01  1.4137592E+02
 2.0500978E+01  1.4161435E+02
 2.0521950E+01  1.4236235E+02
 2.0542923E+01  1.4322272E+02
 2.0563896E+01  1.4434866E+02
 2.0584869E+01  1.4585728E+02
 2.0605843E+01  1.4803795E+02
 2.0626816E+01  1.5142552E+02
 2.0647787E+01  1.5697905E+02
 2.0668760E+01  1.6697505E+02
 2.0689734E+01  1.8559888E+02
 2.0710707E+01  2.0845265E+02
 2.0731680E+01  2.1057623E+02
 2.0752651E+01  1.8667174E+02
 2.0773624E+01  1.6683966E+02
 2.0794598E+01  1.5709813E+02
 2.0815571E+01  1.5183865E+02
 2.0836544E+01  1.4845027E+02
 2.0857517E+01  1.4635733E+02
 2.0878489E+01  1.4499696E+02
 2.0899462E+01  1.4406250E+02
 2.0920435E+01  1.4353152E+02
 2.0941408E+01  1.4351207E+02
 2.0962381E+01  1.4396504E+02
 2.0983355E+01  1.4442105E+02
 2.1004326E+01  1.4490999E+02
 2.1025299E+01  1.4603828E+02
 2.1046272E+01  1.4759435E+02
 2.1067245E+01  1.4961201E+02
 2.1088219E+01  1.5244298E+02
 2.1109190E+01  1.5626187E+02
 2.1130163E+01  1.6187335E+02
 2.1151136E+01  1.7083772E+02
 2.1172110E+01  1.8597330E+02
 2.1193083E+01  2.1749535E+02
 2.1214056E+01  2.6985767E+02
 2.1235027E+01  2.9742929E+02
 2.1256001E+01  2.6999500E+02
 2.1276974E+01  2.2017978E+02
 2.1297947E+01  1.8809528E+02
 2.1318920E+01  1.7224420E+02
 2.1339893E+01  1.6329720E+02
 2.1360865E+01  1.5737277E+02
 2.1381838E+01  1.5332806E+02
 2.1402811E+01  1.5025728E+02
 2.1423784E+01  1.4782193E+02
 2.1444757E+01  1.4594769E+02
 2.1465729E+01  1.4463586E+02
 2.1486702E+01  1.4362779E+02
 2.1507675E+01  1.4314110E+02
 2.1528648E+01  1.4299699E+02
 2.1549622E+01  1.4314166E+02
 2.1570595E+01  1.4345706E+02
 2.1591566E+01  1.4408072E+02
 2.1612539E+01  1.4572514E+02
 2.1633512E+01  1.4832912E+02
 2.1654486E+01  1.5197864E+02
 2.1675459E+01  1.5705681E+02
 2.1696432E+01  1.6667357E+02
 2.1717403E+01  1.8654610E+02
 2.1738377E+01  2.2213348E+02
 2.1759350E+01  2.4016124E+02
 2.1780323E+01  2.0854297E+02
 2.1801296E+01  1.6489792E+02
 2.1822268E+01  1.5189023E+02
 2.1843241E+01  1.4723888E+02
 2.1864214E+01  1.4435298E+02
 2.1885187E+01  1.4189842E+02
 2.1906160E+01  1.4005481E+02
 2.1927134E+01  1.3872298E+02
 2.1948105E+01  1.3783817E+02
 2.1969078E+01  1.3705476E+02
 2.1990051E+01  1.3640941E+02
 2.2011024E+01  1.3576558E+02
 2.2031998E+01  1.3513637E+02
 2.2052969E+01  1.3462570E+02
 2.2073942E+01  1.3437263E+02
 2.2094915E+01  1.3415880E+02
 2.2115889E+01  1.3362131E+02
 2.2136862E+01  1.3320033E+02
 2.2157835E+01  1.3316005E+02
 2.2178806E+01  1.3304332E+02
 2.2199780E+01  1.3281288E+02
 2.2220753E+01  1.3305275E+02
 2.2241726E+01  1.3308847E+02
 2.2262699E+01  1.3313736E+02
 2.2283672E+01  1.3327605E+02
 2.2304644E+01  1.3286635E+02
 2.2325617E+01  1.3277519E+02
 2.2346590E+01  1.2780618E+02
 2.2367563E+01  1.1481915E+02
 2.2388536E+01  1.0308930E+02
 2.2409508E+01  9.5608284E+01
 2.2430481E+01  8.9527367E+01
 2.2451454E+01  8.3937462E+01
 2.2472427E+01  7.8725754E+01
 2.2493401E+01  7.3751823E+01
 2.2514374E+01  7.0047890E+01
 2.2535345E+01  6.5528770E+01
 2.2556318E+01  6.1453518E+01
 2.2577291E+01  5.6862072E+01
 2.2598265E+01  5.1149902E+01
 2.2619238E+01  4.4645420E+01
 2.2640211E+01  3.6480980E+01
 2.2661182E+01  2.3974167E+01
 2.2682156E+01  8.3559570E+00
 2.2703129E+01  4.1700789E-01
 2.2724102E+01  0.0000000E+00
 2.2745075E+01  0.0000000E+00
 2.2766047E+01  0.0000000E+00
 2.2787020E+01  0.0000000E+00
 2.2807993E+01  0.0000000E+00
 2.2828966E+01  0.0000000E+00
 2.2849939E+01  0.0000000E+00
 2.2870913E+01  0.0000000E+00
 2.2891884E+01  0.0000000E+00
 2.2912857E+01  0.0000000E+00
 2.2933830E+01  0.0000000E+00
 2.2954803E+01  0.0000000E+00
 2.2975777E+01  0.0000000E+00
 2.2996750E+01  0.0000000E+00
 2.3017721E+01  0.0000000E+00
 2.3038694E+01  0.0000000E+00
 2.3059668E+01  0.0000000E+00
 2.3080641E+01  0.0000000E+00
 2.3101614E+01  0.0000000E+00
 2.3122585E+01  0.0000000E+00
 2.3143559E+01  0.0000000E+00
 2.3164532E+01  0.0000000E+00
 2.3185505E+01  0.0000000E+00
 2.3206478E+01  0.0000000E+00
 2.3227451E+01  0.0000000E+00
 2.3248423E+01  0.0000000E+00
 2.3269396E+01  0.0000000E+00
 2.3290369E+01  0.0000000E+00
 2.3311342E+01  0.0000000E+00
 2.3332315E+01  0.0000000E+00
 2.3353287E+01  0.0000000E+00
 2.3374260E+01  0.0000000E+00
 2.3395233E+01  0.0000000E+00
 2.3416206E+01  0.0000000E+00
 2.3437180E+01  0.0000000E+00
 2.3458153E+01  0.0000000E+00
 2.3479124E+01  0.0000000E+00
 2.3500097E+01  0.0000000E+00
 2.3521070E+01  0.0000000E+00
 2.3542044E+01  0.0000000E+00
 2.3563017E+01  0.0000000E+00
 2.3583990E+01  0.0000000E+00
 2.3604961E+01  0.0000000E+00
 2.3625935E+01  0.0000000E+00
 2.3646908E+01  0.0000000E+00
 2.3667881E+01  0.0000000E+00
 2.3688854E+01  0.0000000E+00
 2.3709826E+01  0.0000000E+00
 2.3730799E+01  0.0000000E+00
 2.3751772E+01  0.0000000E+00
 2.3772745E+01  0.0000000E+00
 2.3793718E+01  0.0000000E+00
 2.3814692E+01  0.0000000E+00
 2.3835663E+01  0.0000000E+00
 2.3856636E+01  0.0000000E+00
 2.3877609E+01  0.0000000E+00
 2.3898582E+01  0.0000000E+00
 2.3919556E+01  0.0000000E+00
 2.3940529E+01  0.0000000E+00
 2.3961500E+01  0.0000000E+00
 2.3982473E+01  0.0000000E+00
 2.4003447E+01  0.0000000E+00
 2.4024420E+01  0.0000000E+00
 2.4045393E+01  0.0000000E+00
 2.4066364E+01  0.0000000E+00
 2.4087337E+01  0.0000000E+00
 2.4108311E+01  0.0000000E+00
 2.4129284E+01  0.0000000E+00
 2.4150257E+01  0.0000000E+00
 2.4171230E+01  0.0000000E+00
 2.4192202E+01  0.0000000E+00
 2.4213175E+01  0.0000000E+00
 2.4234148E+01  0.0000000E+00
 2.4255121E+01  0.0000000E+00
 2.4276094E+01  0.0000000E+00
 2.4297068E+01  0.0000000E+00
 2.4318039E+01  0.0000000E+00
 2.4339012E+01  0.0000000E+00
 2.4359985E+01  0.0000000E+00
 2.4380959E+01  0.0000000E+00
 2.4401932E+01  0.0000000E+00
 2.4422903E+01  0.0000000E+00
 2.4443876E+01  0.0000000E+00
 2.4464849E+01  0.0000000E+00
 2.4485823E+01  0.0000000E+00
 2.4506796E+01  0.0000000E+00
 2.4527769E+01  0.0000000E+00
 2.4548740E+01  0.0000000E+00
 2.4569714E+01  0.0000000E+00
 2.4590687E+01  0.0000000E+00
 2.4611660E+01  0.0000000E+00
 2.4632633E+01  0.0000000E+00
 2.4653605E+01  0.0000000E+00
 2.4674578E+01  0.0000000E+00
 2.4695551E+01  0.0000000E+00
 2.4716524E+01  0.0000000E+00
 2.4737497E+01  0.0000000E+00
 2.4758471E+01  0.0000000E+00
 2.4779442E+01  0.0000000E+00
 2.4800415E+01  0.0000000E+00
 2.4821388E+01  0.0000000E+00
 2.4842361E+01  0.0000000E+00
 2.4863335E+01  0.0000000E+00
 2.4884308E+01  0.0000000E+00
 2.4905279E+01  0.0000000E+00
 2.4926252E+01  0.0000000E+00
 2.4947226E+01  0.0000000E+00
 2.4968199E+01  0.0000000E+00
 2.4989172E+01  0.0000000E+00
 2.5010143E+01  0.0000000E+00
 2.5031116E+01  0.0000000E+00
 2.5052090E+01  0.0000000E+00
 2.5073063E+01  0.0000000E+00
 2.5094036E+01  0.0000000E+00
 2.5115009E+01  0.0000000E+00
 2.5135981E+01  0.0000000E+00
 2.5156954E+01  0.0000000E+00
 2.5177927E+01  0.0000000E+00
 2.5198900E+01  0.0000000E+00
 2.5219873E+01  0.0000000E+00
 2.5240847E+01  0.0000000E+00
 2.5261818E+01  0.0000000E+00
 2.5282791E+01  0.0000000E+00
 2.5303764E+01  0.0000000E+00
 2.5324738E+01  0.0000000E+00
 2.5345711E+01  0.0000000E+00
 2.5366682E+01  0.0000000E+00
 2.5387655E+01  0.0000000E+00
 2.5408628E+01  0.0000000E+00
 2.5429602E+01  0.0000000E+00
 2.5450575E+01  0.0000000E+00
 2.5471548E+01  0.0000000E+00
 2.5492519E+01  0.0000000E+00
 2.5513493E+01  0.0000000E+00
 2.5534466E+01  0.0000000E+00
 2.5555439E+01  0.0000000E+00
 2.5576412E+01  0.0000000E+00
 2.5597385E+01  0.0000000E+00
 2.5618357E+01  0.0000000E+00
 2.5639330E+01  0.0000000E+00
 2.5660303E+01  0.0000000E+00
 2.5681276E+01  0.0000000E+00
 2.5702250E+01  0.0000000E+00
 2.5723221E+01  0.0000000E+00
 2.5744194E+01  0.0000000E+00
 2.5765167E+01  0.0000000E+00
 2.5786140E+01  0.0000000E+00
 2.5807114E+01  0.0000000E+00
 2.5828087E+01  0.0000000E+00
 2.5849058E+01  0.0000000E+00
 2.5870031E+01  0.0000000E+00
 2.5891005E+01  0.0000000E+00
 2.5911978E+01  0.0000000E+00
 2.5932951E+01  0.0000000E+00
 2.5953922E+01  0.0000000E+00
 2.5974895E+01  0.0000000E+00
 2.5995869E+01  0.0000000E+00
 2.6016842E+01  0.0000000E+00
 2.6037815E+01  0.0000000E+00
 2.6058788E+01  0.0000000E+00
 2.6079760E+01  0.0000000E+00
 2.6100733E+01  0.0000000E+00
 2.6121706E+01  0.0000000E+00
 2.6142679E+01  0.0000000E+00
 2.6163652E+01  0.0000000E+00
 2.6184626E+01  0.0000000E+00
 2.6205597E+01  0.0000000E+00
 2.6226570E+01  0.0000000E+00
 2.6247543E+01  0.0000000E+00
 2.6268517E+01  0.0000000E+00
 2.6289490E+01  0.0000000E+00
 2.6310461E+01  0.0000000E+00
 2.6331434E+01  0.0000000E+00
 2.6352407E+01  0.0000000E+00
 2.6373381E+01  0.0000000E+00
 2.6394354E+01  0.0000000E+00
 2.6415327E+01  0.0000000E+00
 2.6436298E+01  0.0000000E+00
 2.6457272E+01  0.0000000E+00
 2.6478245E+01  0.0000000E+00
 2.6499218E+01  0.0000000E+00
 2.6520191E+01  0.0000000E+00
 2.6541164E+01  0.0000000E+00
 2.6562136E+01  0.0000000E+00
 2.6583109E+01  0.0000000E+00
 2.6604082E+01  0.0000000E+00
 2.6625055E+01  0.0000000E+00
 2.6646029E+01  0.0000000E+00
 2.6667000E+01  0.0000000E+00
 2.6687973E+01  0.0000000E+00
 2.6708946E+01  0.0000000E+00
 2.6729919E+01  0.0000000E+00
 2.6750893E+01  0.0000000E+00
 2.6771866E+01  0.0000000E+00
 2.6792837E+01  0.0000000E+00
 2.6813810E+01  0.0000000E+00
 2.6834784E+01  0.0000000E+00
 2.6855757E+01  0.0000000E+00
 2.6876730E+01  0.0000000E+00
 2.6897703E+01  0.0000000E+00
 2.6918674E+01  0.0000000E+00
 2.6939648E+01  0.0000000E+00
 2.6960621E+01  0.0000000E+00
 2.6981594E+01  0.0000000E+00
 2.7002567E+01  0.0000000E+00
 2.7023539E+01  0.0000000E+00
 2.7044512E+01  0.0000000E+00
 2.7065485E+01  0.0000000E+00
 2.7086458E+01  0.0000000E+00
 2.7107431E+01  0.0000000E+00
 2.7128405E+01  0.0000000E+00
 2.7149376E+01  0.0000000E+00
 2.7170349E+01  0.0000000E+00
 2.7191322E+01  0.0000000E+00
 2.7212296E+01  0.0000000E+00
 2.7233269E+01  0.0000000E+00
 2.7254242E+01  0.0000000E+00
 2.7275213E+01  0.0000000E+00
 2.7296186E+01  0.0000000E+00
 2.7317160E+01  0.0000000E+00
 2.7338133E+01  0.0000000E+00
 2.7359106E+01  0.0000000E+00
 2.7380077E+01  0.0000000E+00
 2.7401051E+01  0.0000000E+00
 2.7422024E+01  0.0000000E+00
 2.7442997E+01  0.0000000E+00
 2.7463970E+01  0.0000000E+00
 2.7484943E+01  0.0000000E+00
 2.7505915E+01  0.0000000E+00
 2.7526888E+01  0.0000000E+00
 2.7547861E+01  0.0000000E+00
 2.7568834E+01  0.0000000E+00
 2.7589808E+01  0.0000000E+00
 2.7610779E+01  0.0000000E+00
 2.7631752E+01  0.0000000E+00
 2.7652725E+01  0.0000000E+00
 2.7673698E+01  0.0000000E+00
 2.7694672E+01  0.0000000E+00
 2.7715645E+01  0.0000000E+00
 2.7736616E+01  0.0000000E+00
 2.7757589E+01  0.0000000E+00
 2.7778563E+01  0.0000000E+00
 2.7799536E+01  0.0000000E+00
 2.7820509E+01  0.0000000E+00
 2.7841482E+01  0.0000000E+00
 2.7862453E+01  0.0000000E+00
 2.7883427E+01  0.0000000E+00
 2.7904400E+01  0.0000000E+00
 2.7925373E+01  0.0000000E+00
 2.7946346E+01  0.0000000E+00
 2.7967318E+01  0.0000000E+00
 2.7988291E+01  0.0000000E+00
 2.8009264E+01  0.0000000E+00
 2.8030237E+01  0.0000000E+00
 2.8051210E+01  0.0000000E+00
 2.8072184E+01  0.0000000E+00
 2.8093155E+01  0.0000000E+00
 2.8114128E+01  0.0000000E+00
 2.8135101E+01  0.0000000E+00
 2.8156075E+01  0.0000000E+00
 2.8177048E+01  0.0000000E+00
 2.8198021E+01  0.0000000E+00
 2.8218992E+01  0.0000000E+00
 2.8239965E+01  0.0000000E+00
 2.8260939E+01  0.0000000E+00
 2.8281912E+01  0.0000000E+00
 2.8302885E+01  0.0000000E+00
 2.8323856E+01  0.0000000E+00
 2.8344830E+01  0.0000000E+00
 2.8365803E+01  0.0000000E+00
 2.8386776E+01  0.0000000E+00
 2.8407749E+01  0.0000000E+00
 2.8428722E+01  0.0000000E+00
 2.8449694E+01  0.0000000E+00
 2.8470667E+01  0.0000000E+00
 2.8491640E+01  0.0000000E+00
 2.8512613E+01  0.0000000E+00
 2.8533587E+01  0.0000000E+00
 2.8554560E+01  0.0000000E+00
 2.8575531E+01  0.0000000E+00
 2.8596504E+01  0.0000000E+00
 2.8617477E+01  0.0000000E+00
 2.8638451E+01  0.0000000E+00
 2.8659424E+01  0.0000000E+00
 2.8680395E+01  0.0000000E+00
 2.8701368E+01  0.0000000E+00
 2.8722342E+01  0.0000000E+00
 2.8743315E+01  0.0000000E+00
 2.8764288E+01  0.0000000E+00
 2.8785261E+01  0.0000000E+00
 2.8806232E+01  0.0000000E+00
 2.8827206E+01  0.0000000E+00
 2.8848179E+01  0.0000000E+00
 2.8869152E+01  0.0000000E+00
 2.8890125E+01  0.0000000E+00
 2.8911097E+01  0.0000000E+00
 2.8932070E+01  0.0000000E+00
 2.8953043E+01  0.0000000E+00
 2.8974016E+01  0.0000000E+00
 2.8994989E+01  0.0000000E+00
 2.9015963E+01  0.0000000E+00
 2.9036934E+01  0.0000000E+00
 2.9057907E+01  0.0000000E+00
 2.9078880E+01  0.0000000E+00
 2.9099854E+01  0.0000000E+00
 2.9120827E+01  0.0000000E+00
 2.9141800E+01  0.0000000E+00
 2.9162771E+01  0.0000000E+00
 2.9183744E+01  0.0000000E+00
 2.9204718E+01  0.0000000E+00
 2.9225691E+01  0.0000000E+00
 2.9246664E+01  0.0000000E+00
 2.9267635E+01  0.0000000E+00
 2.9288609E+01  0.0000000E+00
 2.9309582E+01  0.0000000E+00
 2.9330555E+01  0.0000000E+00
 2.9351528E+01  0.0000000E+00
 2.9372501E+01  0.0000000E+00
 2.9393473E+01  0.0000000E+00
 2.9414446E+01  0.0000000E+00
 2.9435419E+01  0.0000000E+00
 2.9456392E+01  0.0000000E+00
 2.9477365E+01  0.0000000E+00
 2.9498339E+01  0.0000000E+00
 2.9519310E+01  0.0000000E+00
 2.9540283E+01  0.0000000E+00
 2.9561256E+01  0.0000000E+00
 2.9582230E+01  0.0000000E+00
 2.9603203E+01  0.0000000E+00
 2.9624174E+01  0.0000000E+00
 2.9645147E+01  0.0000000E+00
 2.9666121E+01  0.0000000E+00
 2.9687094E+01  0.0000000E+00
 2.9708067E+01  0.0000000E+00
 2.9729040E+01  0.0000000E+00
 2.9750011E+01  0.0000000E+00
 2.9770985E+01  0.0000000E+00
 2.9791958E+01  0.0000000E+00
 2.9812931E+01  0.0000000E+00
 2.9833904E+01  0.0000000E+00
 2.9854877E+01  0.0000000E+00
 2.9875849E+01  0.0000000E+00
 2.9896822E+01  0.0000000E+00
 2.9917795E+01  0.0000000E+00
 2.9938768E+01  0.0000000E+00
 2.9959742E+01  0.0000000E+00
 2.9980713E+01  0.0000000E+00
 3.0001686E+01  0.0000000E+00
 3.0022659E+01  0.0000000E+00
 3.0043633E+01  0.0000000E+00
 3.0064606E+01  0.0000000E+00
 3.0085579E+01  0.0000000E+00
 3.0106550E+01  0.0000000E+00
 3.0127523E+01  0.0000000E+00
 3.0148497E+01  0.0000000E+00
 3.0169470E+01  0.0000000E+00
 3.0190443E+01  0.0000000E+00
 3.0211414E+01  0.0000000E+00
 3.0232388E+01  0.0000000E+00
 3.0253361E+01  0.0000000E+00
 3.0274334E+01  0.0000000E+00
 3.0295307E+01  0.0000000E+00
 3.0316280E+01  0.0000000E+00
 3.0337252E+01  0.0000000E+00
 3.0358225E+01  0.0000000E+00
 3.0379198E+01  0.0000000E+00
 3.0400171E+01  0.0000000E+00
 3.0421144E+01  0.0000000E+00
 3.0442118E+01  0.0000000E+00
 3.0463089E+01  0.0000000E+00
 3.0484062E+01  0.0000000E+00
 3.0505035E+01  0.0000000E+00
